dt: 0.01
Time[s]     Moment_Rate [Nm]
    0.00		0.0000e+00
    0.01		4.5185e+11
    0.02		2.2592e+12
    0.03		6.3254e+12
    0.04		1.3554e+13
    0.05		2.4846e+13
    0.06		4.1105e+13
    0.07		6.3232e+13
    0.08		9.2126e+13
    0.09		1.2869e+14
    0.10		1.7381e+14
    0.11		2.2840e+14
    0.12		2.9334e+14
    0.13		3.6954e+14
    0.14		4.5787e+14
    0.15		5.5924e+14
    0.16		6.7453e+14
    0.17		8.0462e+14
    0.18		9.5039e+14
    0.19		1.1127e+15
    0.20		1.2925e+15
    0.21		1.4906e+15
    0.22		1.7080e+15
    0.23		1.9453e+15
    0.24		2.2036e+15
    0.25		2.4837e+15
    0.26		2.7865e+15
    0.27		3.1127e+15
    0.28		3.4633e+15
    0.29		3.8392e+15
    0.30		4.2410e+15
    0.31		4.6698e+15
    0.32		5.1263e+15
    0.33		5.6114e+15
    0.34		6.1258e+15
    0.35		6.6705e+15
    0.36		7.2461e+15
    0.37		7.8537e+15
    0.38		8.4938e+15
    0.39		9.1675e+15
    0.40		9.8753e+15
    0.41		1.0618e+16
    0.42		1.1397e+16
    0.43		1.2212e+16
    0.44		1.3065e+16
    0.45		1.3956e+16
    0.46		1.4886e+16
    0.47		1.5855e+16
    0.48		1.6865e+16
    0.49		1.7916e+16
    0.50		1.9009e+16
    0.51		2.0145e+16
    0.52		2.1324e+16
    0.53		2.2547e+16
    0.54		2.3815e+16
    0.55		2.5128e+16
    0.56		2.6487e+16
    0.57		2.7894e+16
    0.58		2.9348e+16
    0.59		3.0850e+16
    0.60		3.2401e+16
    0.61		3.4001e+16
    0.62		3.5652e+16
    0.63		3.7354e+16
    0.64		3.9107e+16
    0.65		4.0912e+16
    0.66		4.2770e+16
    0.67		4.4682e+16
    0.68		4.6647e+16
    0.69		4.8667e+16
    0.70		5.0742e+16
    0.71		5.2872e+16
    0.72		5.5059e+16
    0.73		5.7303e+16
    0.74		5.9604e+16
    0.75		6.1963e+16
    0.76		6.4381e+16
    0.77		6.6857e+16
    0.78		6.9393e+16
    0.79		7.1989e+16
    0.80		7.4645e+16
    0.81		7.7363e+16
    0.82		8.0141e+16
    0.83		8.2982e+16
    0.84		8.5885e+16
    0.85		8.8851e+16
    0.86		9.1880e+16
    0.87		9.4973e+16
    0.88		9.8130e+16
    0.89		1.0135e+17
    0.90		1.0464e+17
    0.91		1.0799e+17
    0.92		1.1141e+17
    0.93		1.1489e+17
    0.94		1.1844e+17
    0.95		1.2205e+17
    0.96		1.2574e+17
    0.97		1.2949e+17
    0.98		1.3331e+17
    0.99		1.3719e+17
    1.00		1.4115e+17
    1.01		1.4517e+17
    1.02		1.4926e+17
    1.03		1.5342e+17
    1.04		1.5765e+17
    1.05		1.6195e+17
    1.06		1.6632e+17
    1.07		1.7076e+17
    1.08		1.7527e+17
    1.09		1.7985e+17
    1.10		1.8450e+17
    1.11		1.8922e+17
    1.12		1.9401e+17
    1.13		1.9888e+17
    1.14		2.0381e+17
    1.15		2.0882e+17
    1.16		2.1389e+17
    1.17		2.1904e+17
    1.18		2.2426e+17
    1.19		2.2955e+17
    1.20		2.3492e+17
    1.21		2.4035e+17
    1.22		2.4586e+17
    1.23		2.5144e+17
    1.24		2.5709e+17
    1.25		2.6281e+17
    1.26		2.6861e+17
    1.27		2.7447e+17
    1.28		2.8041e+17
    1.29		2.8642e+17
    1.30		2.9250e+17
    1.31		2.9866e+17
    1.32		3.0488e+17
    1.33		3.1118e+17
    1.34		3.1755e+17
    1.35		3.2399e+17
    1.36		3.3050e+17
    1.37		3.3708e+17
    1.38		3.4374e+17
    1.39		3.5046e+17
    1.40		3.5726e+17
    1.41		3.6412e+17
    1.42		3.7106e+17
    1.43		3.7806e+17
    1.44		3.8514e+17
    1.45		3.9229e+17
    1.46		3.9950e+17
    1.47		4.0679e+17
    1.48		4.1414e+17
    1.49		4.2156e+17
    1.50		4.2905e+17
    1.51		4.3661e+17
    1.52		4.4424e+17
    1.53		4.5194e+17
    1.54		4.5970e+17
    1.55		4.6753e+17
    1.56		4.7543e+17
    1.57		4.8339e+17
    1.58		4.9142e+17
    1.59		4.9951e+17
    1.60		5.0767e+17
    1.61		5.1589e+17
    1.62		5.2418e+17
    1.63		5.3254e+17
    1.64		5.4095e+17
    1.65		5.4943e+17
    1.66		5.5797e+17
    1.67		5.6658e+17
    1.68		5.7525e+17
    1.69		5.8398e+17
    1.70		5.9276e+17
    1.71		6.0161e+17
    1.72		6.1052e+17
    1.73		6.1949e+17
    1.74		6.2852e+17
    1.75		6.3761e+17
    1.76		6.4675e+17
    1.77		6.5595e+17
    1.78		6.6521e+17
    1.79		6.7453e+17
    1.80		6.8390e+17
    1.81		6.9332e+17
    1.82		7.0280e+17
    1.83		7.1234e+17
    1.84		7.2193e+17
    1.85		7.3157e+17
    1.86		7.4126e+17
    1.87		7.5100e+17
    1.88		7.6080e+17
    1.89		7.7064e+17
    1.90		7.8054e+17
    1.91		7.9048e+17
    1.92		8.0047e+17
    1.93		8.1051e+17
    1.94		8.2060e+17
    1.95		8.3073e+17
    1.96		8.4091e+17
    1.97		8.5113e+17
    1.98		8.6140e+17
    1.99		8.7171e+17
    2.00		8.8206e+17
    2.01		8.9245e+17
    2.02		9.0289e+17
    2.03		9.1337e+17
    2.04		9.2388e+17
    2.05		9.3444e+17
    2.06		9.4503e+17
    2.07		9.5566e+17
    2.08		9.6633e+17
    2.09		9.7703e+17
    2.10		9.8777e+17
    2.11		9.9854e+17
    2.12		1.0093e+18
    2.13		1.0202e+18
    2.14		1.0311e+18
    2.15		1.0420e+18
    2.16		1.0529e+18
    2.17		1.0638e+18
    2.18		1.0748e+18
    2.19		1.0859e+18
    2.20		1.0969e+18
    2.21		1.1080e+18
    2.22		1.1191e+18
    2.23		1.1302e+18
    2.24		1.1413e+18
    2.25		1.1525e+18
    2.26		1.1637e+18
    2.27		1.1749e+18
    2.28		1.1861e+18
    2.29		1.1974e+18
    2.30		1.2086e+18
    2.31		1.2199e+18
    2.32		1.2312e+18
    2.33		1.2425e+18
    2.34		1.2539e+18
    2.35		1.2652e+18
    2.36		1.2766e+18
    2.37		1.2879e+18
    2.38		1.2993e+18
    2.39		1.3107e+18
    2.40		1.3221e+18
    2.41		1.3335e+18
    2.42		1.3449e+18
    2.43		1.3563e+18
    2.44		1.3678e+18
    2.45		1.3792e+18
    2.46		1.3906e+18
    2.47		1.4021e+18
    2.48		1.4135e+18
    2.49		1.4250e+18
    2.50		1.4364e+18
    2.51		1.4479e+18
    2.52		1.4593e+18
    2.53		1.4708e+18
    2.54		1.4822e+18
    2.55		1.4936e+18
    2.56		1.5051e+18
    2.57		1.5165e+18
    2.58		1.5279e+18
    2.59		1.5393e+18
    2.60		1.5507e+18
    2.61		1.5621e+18
    2.62		1.5735e+18
    2.63		1.5848e+18
    2.64		1.5962e+18
    2.65		1.6075e+18
    2.66		1.6189e+18
    2.67		1.6302e+18
    2.68		1.6415e+18
    2.69		1.6528e+18
    2.70		1.6640e+18
    2.71		1.6753e+18
    2.72		1.6865e+18
    2.73		1.6977e+18
    2.74		1.7089e+18
    2.75		1.7201e+18
    2.76		1.7312e+18
    2.77		1.7423e+18
    2.78		1.7534e+18
    2.79		1.7645e+18
    2.80		1.7756e+18
    2.81		1.7866e+18
    2.82		1.7976e+18
    2.83		1.8085e+18
    2.84		1.8194e+18
    2.85		1.8303e+18
    2.86		1.8412e+18
    2.87		1.8521e+18
    2.88		1.8629e+18
    2.89		1.8736e+18
    2.90		1.8844e+18
    2.91		1.8951e+18
    2.92		1.9057e+18
    2.93		1.9164e+18
    2.94		1.9270e+18
    2.95		1.9375e+18
    2.96		1.9480e+18
    2.97		1.9585e+18
    2.98		1.9689e+18
    2.99		1.9793e+18
    3.00		1.9897e+18
    3.01		2.0000e+18
    3.02		2.0103e+18
    3.03		2.0205e+18
    3.04		2.0307e+18
    3.05		2.0408e+18
    3.06		2.0509e+18
    3.07		2.0609e+18
    3.08		2.0709e+18
    3.09		2.0809e+18
    3.10		2.0908e+18
    3.11		2.1006e+18
    3.12		2.1104e+18
    3.13		2.1201e+18
    3.14		2.1298e+18
    3.15		2.1395e+18
    3.16		2.1491e+18
    3.17		2.1586e+18
    3.18		2.1681e+18
    3.19		2.1775e+18
    3.20		2.1869e+18
    3.21		2.1962e+18
    3.22		2.2054e+18
    3.23		2.2147e+18
    3.24		2.2238e+18
    3.25		2.2329e+18
    3.26		2.2419e+18
    3.27		2.2509e+18
    3.28		2.2598e+18
    3.29		2.2686e+18
    3.30		2.2774e+18
    3.31		2.2862e+18
    3.32		2.2948e+18
    3.33		2.3034e+18
    3.34		2.3120e+18
    3.35		2.3205e+18
    3.36		2.3289e+18
    3.37		2.3372e+18
    3.38		2.3455e+18
    3.39		2.3537e+18
    3.40		2.3619e+18
    3.41		2.3700e+18
    3.42		2.3780e+18
    3.43		2.3860e+18
    3.44		2.3939e+18
    3.45		2.4017e+18
    3.46		2.4095e+18
    3.47		2.4172e+18
    3.48		2.4249e+18
    3.49		2.4325e+18
    3.50		2.4400e+18
    3.51		2.4474e+18
    3.52		2.4548e+18
    3.53		2.4621e+18
    3.54		2.4694e+18
    3.55		2.4766e+18
    3.56		2.4837e+18
    3.57		2.4908e+18
    3.58		2.4978e+18
    3.59		2.5048e+18
    3.60		2.5117e+18
    3.61		2.5185e+18
    3.62		2.5252e+18
    3.63		2.5319e+18
    3.64		2.5386e+18
    3.65		2.5451e+18
    3.66		2.5516e+18
    3.67		2.5581e+18
    3.68		2.5645e+18
    3.69		2.5708e+18
    3.70		2.5770e+18
    3.71		2.5832e+18
    3.72		2.5894e+18
    3.73		2.5955e+18
    3.74		2.6015e+18
    3.75		2.6074e+18
    3.76		2.6133e+18
    3.77		2.6192e+18
    3.78		2.6250e+18
    3.79		2.6307e+18
    3.80		2.6363e+18
    3.81		2.6419e+18
    3.82		2.6475e+18
    3.83		2.6530e+18
    3.84		2.6584e+18
    3.85		2.6638e+18
    3.86		2.6691e+18
    3.87		2.6744e+18
    3.88		2.6796e+18
    3.89		2.6847e+18
    3.90		2.6898e+18
    3.91		2.6949e+18
    3.92		2.6999e+18
    3.93		2.7048e+18
    3.94		2.7097e+18
    3.95		2.7145e+18
    3.96		2.7193e+18
    3.97		2.7241e+18
    3.98		2.7287e+18
    3.99		2.7334e+18
    4.00		2.7379e+18
    4.01		2.7425e+18
    4.02		2.7470e+18
    4.03		2.7514e+18
    4.04		2.7558e+18
    4.05		2.7601e+18
    4.06		2.7644e+18
    4.07		2.7687e+18
    4.08		2.7729e+18
    4.09		2.7770e+18
    4.10		2.7811e+18
    4.11		2.7852e+18
    4.12		2.7892e+18
    4.13		2.7932e+18
    4.14		2.7971e+18
    4.15		2.8010e+18
    4.16		2.8049e+18
    4.17		2.8087e+18
    4.18		2.8125e+18
    4.19		2.8162e+18
    4.20		2.8199e+18
    4.21		2.8236e+18
    4.22		2.8272e+18
    4.23		2.8308e+18
    4.24		2.8344e+18
    4.25		2.8379e+18
    4.26		2.8414e+18
    4.27		2.8448e+18
    4.28		2.8482e+18
    4.29		2.8516e+18
    4.30		2.8550e+18
    4.31		2.8583e+18
    4.32		2.8616e+18
    4.33		2.8649e+18
    4.34		2.8681e+18
    4.35		2.8713e+18
    4.36		2.8745e+18
    4.37		2.8776e+18
    4.38		2.8808e+18
    4.39		2.8839e+18
    4.40		2.8870e+18
    4.41		2.8900e+18
    4.42		2.8930e+18
    4.43		2.8961e+18
    4.44		2.8991e+18
    4.45		2.9020e+18
    4.46		2.9050e+18
    4.47		2.9079e+18
    4.48		2.9108e+18
    4.49		2.9137e+18
    4.50		2.9166e+18
    4.51		2.9195e+18
    4.52		2.9223e+18
    4.53		2.9251e+18
    4.54		2.9280e+18
    4.55		2.9308e+18
    4.56		2.9336e+18
    4.57		2.9364e+18
    4.58		2.9391e+18
    4.59		2.9419e+18
    4.60		2.9447e+18
    4.61		2.9474e+18
    4.62		2.9502e+18
    4.63		2.9529e+18
    4.64		2.9556e+18
    4.65		2.9584e+18
    4.66		2.9611e+18
    4.67		2.9638e+18
    4.68		2.9665e+18
    4.69		2.9692e+18
    4.70		2.9720e+18
    4.71		2.9747e+18
    4.72		2.9774e+18
    4.73		2.9801e+18
    4.74		2.9828e+18
    4.75		2.9856e+18
    4.76		2.9883e+18
    4.77		2.9910e+18
    4.78		2.9938e+18
    4.79		2.9965e+18
    4.80		2.9993e+18
    4.81		3.0020e+18
    4.82		3.0048e+18
    4.83		3.0076e+18
    4.84		3.0104e+18
    4.85		3.0132e+18
    4.86		3.0160e+18
    4.87		3.0189e+18
    4.88		3.0217e+18
    4.89		3.0246e+18
    4.90		3.0274e+18
    4.91		3.0303e+18
    4.92		3.0332e+18
    4.93		3.0362e+18
    4.94		3.0391e+18
    4.95		3.0421e+18
    4.96		3.0451e+18
    4.97		3.0481e+18
    4.98		3.0511e+18
    4.99		3.0541e+18
    5.00		3.0572e+18
    5.01		3.0603e+18
    5.02		3.0634e+18
    5.03		3.0666e+18
    5.04		3.0697e+18
    5.05		3.0729e+18
    5.06		3.0761e+18
    5.07		3.0794e+18
    5.08		3.0826e+18
    5.09		3.0859e+18
    5.10		3.0892e+18
    5.11		3.0925e+18
    5.12		3.0959e+18
    5.13		3.0993e+18
    5.14		3.1026e+18
    5.15		3.1060e+18
    5.16		3.1095e+18
    5.17		3.1129e+18
    5.18		3.1164e+18
    5.19		3.1199e+18
    5.20		3.1234e+18
    5.21		3.1269e+18
    5.22		3.1305e+18
    5.23		3.1340e+18
    5.24		3.1376e+18
    5.25		3.1412e+18
    5.26		3.1449e+18
    5.27		3.1485e+18
    5.28		3.1522e+18
    5.29		3.1559e+18
    5.30		3.1596e+18
    5.31		3.1633e+18
    5.32		3.1670e+18
    5.33		3.1708e+18
    5.34		3.1745e+18
    5.35		3.1783e+18
    5.36		3.1821e+18
    5.37		3.1859e+18
    5.38		3.1897e+18
    5.39		3.1936e+18
    5.40		3.1975e+18
    5.41		3.2013e+18
    5.42		3.2052e+18
    5.43		3.2091e+18
    5.44		3.2130e+18
    5.45		3.2170e+18
    5.46		3.2209e+18
    5.47		3.2249e+18
    5.48		3.2289e+18
    5.49		3.2328e+18
    5.50		3.2368e+18
    5.51		3.2408e+18
    5.52		3.2448e+18
    5.53		3.2489e+18
    5.54		3.2529e+18
    5.55		3.2569e+18
    5.56		3.2610e+18
    5.57		3.2650e+18
    5.58		3.2690e+18
    5.59		3.2731e+18
    5.60		3.2771e+18
    5.61		3.2812e+18
    5.62		3.2852e+18
    5.63		3.2892e+18
    5.64		3.2932e+18
    5.65		3.2972e+18
    5.66		3.3013e+18
    5.67		3.3052e+18
    5.68		3.3092e+18
    5.69		3.3132e+18
    5.70		3.3172e+18
    5.71		3.3211e+18
    5.72		3.3250e+18
    5.73		3.3290e+18
    5.74		3.3329e+18
    5.75		3.3367e+18
    5.76		3.3406e+18
    5.77		3.3444e+18
    5.78		3.3482e+18
    5.79		3.3520e+18
    5.80		3.3558e+18
    5.81		3.3595e+18
    5.82		3.3632e+18
    5.83		3.3669e+18
    5.84		3.3706e+18
    5.85		3.3742e+18
    5.86		3.3778e+18
    5.87		3.3813e+18
    5.88		3.3849e+18
    5.89		3.3884e+18
    5.90		3.3918e+18
    5.91		3.3952e+18
    5.92		3.3986e+18
    5.93		3.4020e+18
    5.94		3.4053e+18
    5.95		3.4085e+18
    5.96		3.4117e+18
    5.97		3.4149e+18
    5.98		3.4181e+18
    5.99		3.4212e+18
    6.00		3.4242e+18
    6.01		3.4272e+18
    6.02		3.4302e+18
    6.03		3.4331e+18
    6.04		3.4360e+18
    6.05		3.4388e+18
    6.06		3.4416e+18
    6.07		3.4443e+18
    6.08		3.4470e+18
    6.09		3.4496e+18
    6.10		3.4522e+18
    6.11		3.4547e+18
    6.12		3.4572e+18
    6.13		3.4596e+18
    6.14		3.4620e+18
    6.15		3.4643e+18
    6.16		3.4666e+18
    6.17		3.4688e+18
    6.18		3.4710e+18
    6.19		3.4730e+18
    6.20		3.4751e+18
    6.21		3.4771e+18
    6.22		3.4790e+18
    6.23		3.4809e+18
    6.24		3.4827e+18
    6.25		3.4844e+18
    6.26		3.4861e+18
    6.27		3.4877e+18
    6.28		3.4893e+18
    6.29		3.4908e+18
    6.30		3.4922e+18
    6.31		3.4936e+18
    6.32		3.4949e+18
    6.33		3.4961e+18
    6.34		3.4973e+18
    6.35		3.4984e+18
    6.36		3.4995e+18
    6.37		3.5005e+18
    6.38		3.5014e+18
    6.39		3.5022e+18
    6.40		3.5030e+18
    6.41		3.5037e+18
    6.42		3.5044e+18
    6.43		3.5050e+18
    6.44		3.5055e+18
    6.45		3.5059e+18
    6.46		3.5063e+18
    6.47		3.5066e+18
    6.48		3.5069e+18
    6.49		3.5070e+18
    6.50		3.5071e+18
    6.51		3.5071e+18
    6.52		3.5071e+18
    6.53		3.5070e+18
    6.54		3.5068e+18
    6.55		3.5065e+18
    6.56		3.5062e+18
    6.57		3.5058e+18
    6.58		3.5053e+18
    6.59		3.5047e+18
    6.60		3.5041e+18
    6.61		3.5034e+18
    6.62		3.5027e+18
    6.63		3.5018e+18
    6.64		3.5009e+18
    6.65		3.4999e+18
    6.66		3.4988e+18
    6.67		3.4977e+18
    6.68		3.4965e+18
    6.69		3.4952e+18
    6.70		3.4938e+18
    6.71		3.4924e+18
    6.72		3.4909e+18
    6.73		3.4893e+18
    6.74		3.4876e+18
    6.75		3.4859e+18
    6.76		3.4841e+18
    6.77		3.4822e+18
    6.78		3.4803e+18
    6.79		3.4782e+18
    6.80		3.4761e+18
    6.81		3.4739e+18
    6.82		3.4717e+18
    6.83		3.4693e+18
    6.84		3.4669e+18
    6.85		3.4645e+18
    6.86		3.4619e+18
    6.87		3.4593e+18
    6.88		3.4566e+18
    6.89		3.4538e+18
    6.90		3.4510e+18
    6.91		3.4480e+18
    6.92		3.4451e+18
    6.93		3.4420e+18
    6.94		3.4389e+18
    6.95		3.4356e+18
    6.96		3.4324e+18
    6.97		3.4290e+18
    6.98		3.4256e+18
    6.99		3.4221e+18
    7.00		3.4185e+18
    7.01		3.4149e+18
    7.02		3.4112e+18
    7.03		3.4074e+18
    7.04		3.4035e+18
    7.05		3.3996e+18
    7.06		3.3956e+18
    7.07		3.3915e+18
    7.08		3.3874e+18
    7.09		3.3832e+18
    7.10		3.3790e+18
    7.11		3.3746e+18
    7.12		3.3702e+18
    7.13		3.3657e+18
    7.14		3.3612e+18
    7.15		3.3566e+18
    7.16		3.3519e+18
    7.17		3.3472e+18
    7.18		3.3424e+18
    7.19		3.3376e+18
    7.20		3.3326e+18
    7.21		3.3276e+18
    7.22		3.3226e+18
    7.23		3.3175e+18
    7.24		3.3123e+18
    7.25		3.3071e+18
    7.26		3.3018e+18
    7.27		3.2964e+18
    7.28		3.2910e+18
    7.29		3.2855e+18
    7.30		3.2800e+18
    7.31		3.2744e+18
    7.32		3.2687e+18
    7.33		3.2630e+18
    7.34		3.2572e+18
    7.35		3.2514e+18
    7.36		3.2455e+18
    7.37		3.2396e+18
    7.38		3.2336e+18
    7.39		3.2276e+18
    7.40		3.2215e+18
    7.41		3.2153e+18
    7.42		3.2091e+18
    7.43		3.2029e+18
    7.44		3.1966e+18
    7.45		3.1903e+18
    7.46		3.1839e+18
    7.47		3.1774e+18
    7.48		3.1709e+18
    7.49		3.1644e+18
    7.50		3.1578e+18
    7.51		3.1512e+18
    7.52		3.1445e+18
    7.53		3.1378e+18
    7.54		3.1311e+18
    7.55		3.1243e+18
    7.56		3.1174e+18
    7.57		3.1106e+18
    7.58		3.1036e+18
    7.59		3.0967e+18
    7.60		3.0897e+18
    7.61		3.0827e+18
    7.62		3.0756e+18
    7.63		3.0685e+18
    7.64		3.0614e+18
    7.65		3.0542e+18
    7.66		3.0470e+18
    7.67		3.0398e+18
    7.68		3.0325e+18
    7.69		3.0252e+18
    7.70		3.0179e+18
    7.71		3.0105e+18
    7.72		3.0032e+18
    7.73		2.9958e+18
    7.74		2.9883e+18
    7.75		2.9809e+18
    7.76		2.9734e+18
    7.77		2.9659e+18
    7.78		2.9584e+18
    7.79		2.9508e+18
    7.80		2.9433e+18
    7.81		2.9357e+18
    7.82		2.9281e+18
    7.83		2.9205e+18
    7.84		2.9128e+18
    7.85		2.9052e+18
    7.86		2.8975e+18
    7.87		2.8898e+18
    7.88		2.8821e+18
    7.89		2.8744e+18
    7.90		2.8667e+18
    7.91		2.8589e+18
    7.92		2.8512e+18
    7.93		2.8435e+18
    7.94		2.8357e+18
    7.95		2.8279e+18
    7.96		2.8202e+18
    7.97		2.8124e+18
    7.98		2.8046e+18
    7.99		2.7968e+18
    8.00		2.7891e+18
    8.01		2.7813e+18
    8.02		2.7735e+18
    8.03		2.7657e+18
    8.04		2.7579e+18
    8.05		2.7501e+18
    8.06		2.7424e+18
    8.07		2.7346e+18
    8.08		2.7268e+18
    8.09		2.7191e+18
    8.10		2.7113e+18
    8.11		2.7036e+18
    8.12		2.6958e+18
    8.13		2.6881e+18
    8.14		2.6804e+18
    8.15		2.6727e+18
    8.16		2.6650e+18
    8.17		2.6573e+18
    8.18		2.6496e+18
    8.19		2.6420e+18
    8.20		2.6343e+18
    8.21		2.6267e+18
    8.22		2.6191e+18
    8.23		2.6115e+18
    8.24		2.6040e+18
    8.25		2.5964e+18
    8.26		2.5889e+18
    8.27		2.5814e+18
    8.28		2.5739e+18
    8.29		2.5665e+18
    8.30		2.5591e+18
    8.31		2.5517e+18
    8.32		2.5443e+18
    8.33		2.5369e+18
    8.34		2.5296e+18
    8.35		2.5223e+18
    8.36		2.5151e+18
    8.37		2.5078e+18
    8.38		2.5006e+18
    8.39		2.4935e+18
    8.40		2.4863e+18
    8.41		2.4792e+18
    8.42		2.4722e+18
    8.43		2.4651e+18
    8.44		2.4581e+18
    8.45		2.4512e+18
    8.46		2.4443e+18
    8.47		2.4374e+18
    8.48		2.4305e+18
    8.49		2.4237e+18
    8.50		2.4170e+18
    8.51		2.4103e+18
    8.52		2.4036e+18
    8.53		2.3969e+18
    8.54		2.3904e+18
    8.55		2.3838e+18
    8.56		2.3773e+18
    8.57		2.3708e+18
    8.58		2.3644e+18
    8.59		2.3581e+18
    8.60		2.3518e+18
    8.61		2.3455e+18
    8.62		2.3393e+18
    8.63		2.3331e+18
    8.64		2.3270e+18
    8.65		2.3209e+18
    8.66		2.3149e+18
    8.67		2.3089e+18
    8.68		2.3030e+18
    8.69		2.2972e+18
    8.70		2.2914e+18
    8.71		2.2856e+18
    8.72		2.2799e+18
    8.73		2.2743e+18
    8.74		2.2687e+18
    8.75		2.2632e+18
    8.76		2.2577e+18
    8.77		2.2523e+18
    8.78		2.2469e+18
    8.79		2.2416e+18
    8.80		2.2364e+18
    8.81		2.2312e+18
    8.82		2.2261e+18
    8.83		2.2210e+18
    8.84		2.2160e+18
    8.85		2.2111e+18
    8.86		2.2062e+18
    8.87		2.2014e+18
    8.88		2.1967e+18
    8.89		2.1920e+18
    8.90		2.1874e+18
    8.91		2.1828e+18
    8.92		2.1783e+18
    8.93		2.1739e+18
    8.94		2.1695e+18
    8.95		2.1653e+18
    8.96		2.1610e+18
    8.97		2.1569e+18
    8.98		2.1528e+18
    8.99		2.1488e+18
    9.00		2.1448e+18
    9.01		2.1409e+18
    9.02		2.1371e+18
    9.03		2.1333e+18
    9.04		2.1297e+18
    9.05		2.1260e+18
    9.06		2.1225e+18
    9.07		2.1190e+18
    9.08		2.1156e+18
    9.09		2.1123e+18
    9.10		2.1091e+18
    9.11		2.1059e+18
    9.12		2.1028e+18
    9.13		2.0997e+18
    9.14		2.0967e+18
    9.15		2.0938e+18
    9.16		2.0910e+18
    9.17		2.0883e+18
    9.18		2.0856e+18
    9.19		2.0830e+18
    9.20		2.0804e+18
    9.21		2.0780e+18
    9.22		2.0756e+18
    9.23		2.0733e+18
    9.24		2.0710e+18
    9.25		2.0689e+18
    9.26		2.0668e+18
    9.27		2.0648e+18
    9.28		2.0628e+18
    9.29		2.0610e+18
    9.30		2.0592e+18
    9.31		2.0574e+18
    9.32		2.0558e+18
    9.33		2.0542e+18
    9.34		2.0527e+18
    9.35		2.0513e+18
    9.36		2.0499e+18
    9.37		2.0487e+18
    9.38		2.0475e+18
    9.39		2.0463e+18
    9.40		2.0453e+18
    9.41		2.0443e+18
    9.42		2.0434e+18
    9.43		2.0426e+18
    9.44		2.0418e+18
    9.45		2.0411e+18
    9.46		2.0405e+18
    9.47		2.0400e+18
    9.48		2.0395e+18
    9.49		2.0391e+18
